Time,Exp temp,Simulation temp,Modelica temp,Mass flow,Input temp simulation,Input temp modelica
0,15.0,15.0,15.021035370151084,0.249,17.9,17.672536008844588
30,15.0,15.199599920449856,15.021729145284157,0.249,18.1,18.07268873249177
60,15.3,15.199599920449856,15.022446411357636,0.249,18.4,18.37279058862873
90,15.5,15.199599920449856,15.023163505353352,0.249,18.6,18.672882451809983
120,15.8,15.199599920449856,15.023880428108724,0.249,18.8,18.87293829964221
150,16.1,15.199599920449856,15.024597192304384,0.249,19.0,19.07298996975828
180,16.3,15.199599920449856,15.02532059755032,0.249,19.2,19.17301425123657
210,16.6,15.199599920449856,15.02664291765683,0.249,19.3,19.273037505791194
240,16.8,15.199599920449856,15.041493831614332,0.249,19.5,19.47308095146809
270,17.0,15.199599920449856,15.160256315072786,0.249,19.7,19.6731204280851
300,17.2,15.199599920449856,15.595941107847295,0.249,19.9,19.8731560076327
330,17.5,15.894202457874272,16.42223591551641,0.249,20.1,20.073187772698702
360,17.7,16.230409685550736,17.34216572716042,0.249,20.3,20.27321577509844
390,17.9,16.322148127657112,18.031855029255382,0.249,20.4,20.37322843137838
420,18.1,16.399876261728362,18.454756281922016,0.249,20.6,20.673260922083045
450,18.3,16.467662892199414,18.72656032213996,0.249,20.8,20.873278176557164
480,18.5,16.53544952267046,18.934407234768457,0.249,21.0,21.07329197451964
510,18.6,16.603236153141513,19.115856563884165,0.249,21.1,21.07329199550179
540,18.8,16.647070971977236,19.292499377587266,0.249,21.3,21.273302422849497
570,19.0,16.704916098848095,19.47610317877121,0.249,21.5,21.473309541122266
600,19.2,16.77270272931914,19.664750765420138,0.249,21.7,21.673313423718582
630,19.4,16.84048935979019,19.848522800055942,0.249,21.9,21.873314123881187
660,19.5,16.908275990261238,20.02099635078156,0.249,22.0,22.07331170646154
690,19.7,16.97606262073229,20.18902216652629,0.249,22.2,22.173309350620457
720,19.9,17.019897439568016,20.36563188289466,0.249,22.3,22.273306251824124
750,20.1,17.077742566438868,20.552641359732377,0.249,22.5,22.47329780103007
780,20.3,17.14552919690992,20.73788614895404,0.249,22.7,22.67328642786447
810,20.4,17.21331582738097,20.90963981059309,0.249,22.8,22.873272184569032
840,20.6,17.257150646216694,21.071676115662683,0.249,23.0,23.07325507701455
870,20.8,17.314995773087542,21.23983814942227,0.249,23.1,23.073255134930378
900,21.0,17.382782403558593,21.419842905221287,0.249,23.3,23.273235302563307
930,21.1,17.450569034029645,21.60025277792471,0.249,23.4,23.37322441265121
960,21.3,17.518355664500696,21.768885456770303,0.249,23.6,23.67318766803401
990,21.5,17.562190483336423,21.923629050585248,0.249,23.7,23.673187694062108
1020,21.6,17.620035610207275,22.072447140383645,0.249,23.9,23.87315996785094
1050,21.8,17.663870429042998,22.22763246657377,0.249,24.0,24.07312969991949
1080,22.0,17.721715555913846,22.39429785379474,0.249,24.1,24.073129711726097
1110,22.1,17.789502186384897,22.56332847853463,0.249,24.3,24.273096953667448
1140,22.3,17.83333700522062,22.721387734536226,0.249,24.4,24.37307968286393
1170,22.4,17.89118213209147,22.865022764057187,0.249,24.5,24.473061805138173
1200,22.6,17.9350169509272,23.00060819842321,0.249,24.7,24.67302425746601
1230,22.7,17.99286207779805,23.13978843454373,0.249,24.8,24.87298437601908
1260,22.9,18.03669689663377,23.289828679657205,0.249,24.9,24.87298438167477
1290,23.0,18.094542023504623,23.44458193648228,0.249,25.0,25.072942222080545
1320,23.2,18.138376842340357,23.59436424661243,0.249,25.2,25.1729202876802
1350,23.3,18.26228125152544,23.735553406243355,0.249,25.3,25.272897829385897
1380,23.5,18.306116070361163,23.86641196336388,0.249,25.4,25.37287481048395
1410,23.6,18.340009385596687,23.988706867037703,0.249,25.5,25.47285125112592
1440,23.8,18.397854512467536,24.11133013548164,0.249,25.7,25.672802529411
1470,23.9,18.441689331303262,24.2432318181489,0.249,25.8,25.872751694634417
1500,24.1,18.47558264653879,24.38534141930137,0.249,25.9,25.8727517120862
1530,24.2,18.53342777340964,24.52953172004078,0.249,26.0,26.072698839626582
1560,24.3,18.577262592245365,24.66571273240225,0.249,26.1,26.07269884216516
1590,24.4,18.61115590748089,24.79000554336216,0.249,26.2,26.17267165087651
1620,24.6,18.645049222716413,24.90477743617322,0.249,26.4,26.37261577421134
1650,24.7,18.702894349587268,25.01657845456731,0.249,26.5,26.472587104022978
1680,24.8,18.74672916842299,25.132980069622533,0.249,26.6,26.67252833652367
1710,25.0,18.78062248365852,25.25821685758564,0.249,26.7,26.67252834644097
1740,25.1,18.814515798894043,25.388860785238705,0.249,26.8,26.872467685657853
1770,25.2,18.87236092576489,25.517391318970056,0.249,26.9,26.872467692486225
1800,25.3,18.91619574460061,25.64063847974097,0.249,27.0,27.07240518832145
1830,25.4,18.95008905983614,25.75759936073115,0.249,27.1,27.07240519515267
1860,25.6,18.983982375071665,25.865426721660413,0.249,27.2,27.1723732662781
1890,25.7,19.017875690307196,25.966537474863628,0.249,27.3,27.272340893569663
1920,25.8,19.051769005542717,26.06957035858688,0.249,27.4,27.372308078368008
1950,25.9,19.10961413241357,26.18075422929377,0.249,27.5,27.472274827336378
1980,26.0,19.153448951249292,26.300329790941475,0.249,27.6,27.67220703344828
2010,26.1,19.18734226648482,26.420924032330788,0.249,27.7,27.67220703544592
2040,26.3,19.28729486403458,26.53482701866045,0.249,27.8,27.872137551424657
2070,26.3,19.32118817927011,26.640816245135795,0.249,27.9,27.872137553686684
2100,26.5,19.355081494505637,26.7414657301228,0.249,28.0,28.072066407732223
2130,26.6,19.38897480974115,26.83737865067832,0.249,28.1,28.072066419635007
2160,26.7,19.42286812497668,26.92888661198714,0.249,28.2,28.172030235872057
2190,26.8,19.456761440212205,27.02045842871297,0.249,28.3,28.271993640726805
2220,26.9,19.49065475544773,27.11708085122888,0.249,28.3,28.271993670332108
2250,27.0,19.524548070683256,27.22270430636746,0.249,28.4,28.37195670016723
2280,27.1,19.558441385918783,27.335934925034564,0.249,28.5,28.47191933965644
2310,27.2,19.592334701154304,27.44778263393806,0.249,28.6,28.671843455672047
2340,27.3,19.62622801638983,27.55151262477574,0.249,28.7,28.671843463887114
2370,27.4,19.66012133162536,27.64570209093523,0.249,28.8,28.871766073422805
2400,27.4,19.69401464686088,27.733883726457123,0.249,28.9,28.871766076864503
2430,27.6,19.72790796209641,27.81851187404704,0.249,28.9,28.87176607768697
2460,27.6,19.76180127733193,27.89743451428609,0.249,29.0,29.071687211877705
2490,27.7,19.79569459256745,27.97271090044848,0.249,29.1,29.071687213343125
2520,27.8,19.895647190117216,28.050029548095097,0.249,29.2,29.17164723699193
2550,27.9,19.90558869371742,28.132917412378163,0.249,29.3,29.271606889254823
2580,28.0,19.929540505352747,28.22285296191484,0.249,29.3,29.2716069056695
2610,28.1,19.963433820588268,28.32071183851889,0.249,29.4,29.371566220065404
2640,28.2,19.997327135823795,28.424436370914748,0.249,29.5,29.47152518411974
2670,28.3,20.031220451059323,28.52720860476819,0.249,29.6,29.6714420807416
2700,28.4,20.06511376629485,28.618776833613936,0.249,29.6,29.671442086471075
2730,28.4,20.09900708153037,28.697711066288264,0.249,29.7,29.67144208729428
2760,28.5,20.108948585130573,28.7738137591312,0.249,29.8,29.87135763824688
2790,28.6,20.13290039676589,28.849261938098778,0.249,29.9,29.87135764015602
2820,28.7,20.16679371200142,28.91985730876212,0.249,30.0,30.07127183730308
2850,28.8,20.200687027236945,28.9876205548282,0.249,30.0,30.07127187609626
2880,28.8,20.234580342472476,29.05777797832144,0.249,30.1,30.07127187699916
2910,28.9,20.244521846072672,29.132649110250952,0.249,30.2,30.171228505101112
2940,29.0,20.268473657707997,29.21563180491449,0.249,30.3,30.271184807620216
2970,29.1,20.36842625525776,29.30900300372645,0.249,30.3,30.271184827407183
3000,29.2,20.402319570493283,29.40271049237361,0.249,30.4,30.371140827233205
3030,29.2,20.41226107409349,29.487282783234548,0.249,30.5,30.47109651385449
3060,29.3,20.436212885728807,29.5660537608382,0.249,30.5,30.471096521480604
3090,29.4,20.47010620096433,29.641473349945784,0.249,30.6,30.671006986837423
3120,29.5,20.503999516199865,29.715580432972786,0.249,30.7,30.671006987880105
3150,29.6,20.53789283143539,29.78935897867069,0.249,30.7,30.671006988676027
3180,29.6,20.547834335035585,29.855447705023664,0.249,30.8,30.870916255363
3210,29.7,20.57178614667091,29.91329151287545,0.249,30.9,30.870916257127988
3240,29.8,20.605679461906437,29.97254681281373,0.249,30.9,30.870916257924705
3270,29.8,20.63957277714196,30.037243574616525,0.249,31.0,31.070824354534125
3300,29.9,20.64951428074216,30.10610166755617,0.249,31.1,31.07082435697612
3330,30.0,20.673466092377488,30.181475775473302,0.249,31.1,31.07082435777193
3360,30.1,20.70735940761301,30.26735411082558,0.249,31.2,31.170777977139267
3390,30.1,20.78336019352745,30.357506729516388,0.249,31.3,31.270731305019808
3420,30.2,20.80731200516277,30.435751612547108,0.249,31.3,31.270731316179425
3450,30.3,20.8412053203983,30.50052947180501,0.249,31.4,31.370684371084053
3480,30.3,20.851146823998494,30.565446498305448,0.249,31.4,31.370684376192344
3510,30.4,20.875098635633822,30.632005598803573,0.249,31.5,31.47063715878477
3540,30.5,20.90899195086935,30.69647037149815,0.249,31.5,31.4706371940988
3570,30.6,20.91893345446955,30.76315594498596,0.249,31.6,31.670541914970613
3600,30.6,20.942885266104877,30.82810749718516,0.249,31.6,31.670541918815616
3630,30.7,21.042837863654636,30.88334808801261,0.249,31.7,31.67054191958516
3660,30.7,21.05277936725484,30.933724786803225,0.249,31.8,31.870445590889403
3690,30.8,21.07673117889016,30.987117248433663,0.249,31.8,31.87044561680841
3720,30.9,21.110624494125688,31.04270449548352,0.249,31.9,31.87044561763116
3750,30.9,21.120565997725887,31.09693537158188,0.249,31.9,31.870445618382632
3780,31.0,21.14451780936121,31.15129954423486,0.249,32.0,32.07034827520374
3810,31.1,21.15445931296141,31.211834318185023,0.249,32.0,32.07034828197254
3840,31.1,21.17841112459673,31.2835775340148,0.249,32.1,32.07034828273879
3870,31.2,21.18835262819693,31.361499392314784,0.249,32.1,32.070348283473606
3900,31.2,21.212304439832263,31.43013636844256,0.249,32.2,32.17029923462002
3930,31.3,21.222245943432466,31.48374299581684,0.249,32.2,32.170299236436506
3960,31.3,21.246197755067787,31.5368269041332,0.249,32.3,32.27024993902671
3990,31.4,21.280091070303317,31.597492419145222,0.249,32.3,32.27024994063686
4020,31.5,21.29003257390352,31.653301310218865,0.249,32.4,32.370200397188114
4050,31.5,21.31398438553884,31.70028084261952,0.249,32.4,32.37020039923476
4080,31.6,21.32392588913904,31.75281956260352,0.249,32.4,32.370200399938255
4110,31.6,21.347877700774365,31.812490824855274,0.249,32.5,32.47015059282552
4140,31.7,21.4238784866888,31.86280055992637,0.249,32.5,32.4701506159945
4170,31.7,21.447830298324128,31.899084237739828,0.249,32.5,32.47015061672596
4200,31.8,21.45777180192433,31.93351019817527,0.249,32.6,32.6700503305492
4230,31.8,21.48172361355965,31.974714302614245,0.249,32.6,32.67005033267628
4260,31.9,21.49166511715985,32.02167854184353,0.249,32.7,32.6700503333725
4290,31.9,21.51561692879518,32.07042909927492,0.249,32.7,32.670050334051666
4320,32.0,21.52555843239538,32.11793658976575,0.249,32.8,32.869949078535
4350,32.0,21.5495102440307,32.159839576583465,0.249,32.8,32.869949117185115
4380,32.0,21.559451747630906,32.19364022989379,0.249,32.8,32.86994911795739
4410,32.1,21.559451747630906,32.224837004807625,0.249,32.9,32.86994911863508
4440,32.2,21.649462841580466,32.2606777790765,0.249,32.9,32.86994911930071
4470,32.2,21.659404345180665,32.30706434791847,0.249,32.9,32.869949119953674
4500,32.2,21.659404345180665,32.36729096125333,0.249,33.0,33.069846993689225
4530,32.3,21.68335615681599,32.42946247403171,0.249,33.0,33.06984699470593
4560,32.3,21.69329766041619,32.47561122235862,0.249,33.1,33.069846995364344
4590,32.3,21.71724947205152,32.5081051049803,0.249,33.1,33.069846996010256
4620,32.4,21.72719097565172,32.54803702540352,0.249,33.1,33.06984699664423
4650,32.4,21.75114278728704,32.60324764086562,0.249,33.2,33.16979559830247
4680,32.5,21.76108429088724,32.655772534760274,0.249,33.2,33.16979560140925
4710,32.5,21.76108429088724,32.68951228077145,0.249,33.2,33.16979560203288
4740,32.5,21.785036102522565,32.71101400940137,0.249,33.2,33.169795624555945
4770,32.6,21.861036888437003,32.74179460878378,0.249,33.3,33.26974398842026
4800,32.6,21.861036888437003,32.79265811009708,0.249,33.3,33.26974398919515
4830,32.7,21.88498870007232,32.84748915392112,0.249,33.4,33.36969215784916
4860,32.7,21.894930203672526,32.885479135396906,0.249,33.4,33.36969216046862
4890,32.7,21.91888201530785,32.90504825113686,0.249,33.4,33.369692161070816
4920,32.8,21.92882351890805,32.91969297084762,0.249,33.4,33.369692161659884
4950,32.8,21.92882351890805,32.94216594767698,0.249,33.5,33.46964011964383
4980,32.8,21.95277533054338,32.97170074377328,0.249,33.5,33.46964012055855
5010,32.9,21.962716834143578,33.00022755372282,0.249,33.5,33.46964012114347
5040,32.9,21.962716834143578,33.02832772487824,0.249,33.6,33.669535410826256
5070,33.0,21.962716834143578,33.060870500230806,0.249,33.6,33.66953541221528
5100,33.0,21.986668645778902,33.09736595436135,0.249,33.6,33.66953541281811
5130,33.0,22.062669431693337,33.13593879782849,0.249,33.6,33.66953541340786
5160,33.0,22.086621243328665,33.17234789982632,0.249,33.7,33.66953541398607
5190,33.1,22.096562746928868,33.20124562456812,0.249,33.7,33.66953541455371
5220,33.1,22.096562746928868,33.22655483585726,0.249,33.7,33.66953541511157
5250,33.1,22.096562746928868,33.25631502590949,0.249,33.8,33.86942981964478
5280,33.2,22.12051455856419,33.29123533673459,0.249,33.8,33.86942988011333
5310,33.2,22.130456062164388,33.33430843442687,0.249,33.8,33.86942989150225
5340,33.2,22.130456062164388,33.39092063177219,0.249,33.8,33.86942989208865
5370,33.3,22.15440787379972,33.4494146525289,0.249,33.8,33.869429892637186
5400,33.3,22.164349377399915,33.4906575133287,0.249,33.9,33.86942989317333
5430,33.3,22.164349377399915,33.510844941872904,0.249,33.9,33.86942989369953
5460,33.3,22.230408659714147,33.518471956623046,0.249,33.9,33.86942989421817
5490,33.4,22.25436047134948,33.52202967410898,0.249,34.0,34.06932350588812
5520,33.4,22.26430197494968,33.52905796213878,0.249,34.0,34.06932357458908
5550,33.4,22.26430197494968,33.55068571691771,0.249,34.0,34.0693235766995
5580,33.4,22.288253786585003,33.59392882386084,0.249,34.0,34.06932357838866
5610,33.5,22.2981952901852,33.64722767217535,0.249,34.0,34.06932357891537
5640,33.5,22.2981952901852,33.68971067750664,0.249,34.1,34.06932357942719
5670,33.5,22.2981952901852,33.71291270247622,0.249,34.1,34.06932357992929
5700,33.6,22.2981952901852,33.72241681505233,0.249,34.1,34.069323580424054
5730,33.6,22.322147101820523,33.72687724620579,0.249,34.1,34.06932358091217
5760,33.6,22.33208860542073,33.73564054668094,0.249,34.1,34.069323581394144
5790,33.6,22.33208860542073,33.76064961684864,0.249,34.2,34.16927013248096
5820,33.6,22.35604041705605,33.80508058212996,0.249,34.2,34.16927013306281
5850,33.7,22.365981920656253,33.854798118500696,0.249,34.2,34.16927013353978
5880,33.7,22.365981920656253,33.893321952653366,0.249,34.2,34.169270134005046
5910,33.7,22.365981920656253,33.915592910753105,0.249,34.2,34.16927015287763
5940,33.7,22.365981920656253,33.92572567715962,0.249,34.3,34.26921649558449
5970,33.8,22.455993014605813,33.929820169427046,0.249,34.3,34.26921649618248
6000,33.8,22.465934518206016,33.93224677414338,0.249,34.3,34.26921649664456
6030,33.8,22.465934518206016,33.93761728079954,0.249,34.3,34.269216497100615
6060,33.8,22.465934518206016,33.952776973948346,0.249,34.3,34.26921649755025
6090,33.9,22.465934518206016,33.97902905525433,0.249,34.4,34.36916267110405
6120,33.9,22.489886329841337,34.006427843426025,0.249,34.4,34.36916267204066
6150,33.9,22.499827833441543,34.0261734943503,0.249,34.4,34.36916267249092
6180,33.9,22.499827833441543,34.04196476349085,0.249,34.4,34.369162672932816
6210,33.9,22.499827833441543,34.062984955324,0.249,34.4,34.36916267336744
6240,34.0,22.499827833441543,34.089954637840094,0.249,34.5,34.469108661995506
6270,34.0,22.523779645076864,34.11424898993374,0.249,34.5,34.4691086633174
6300,34.0,22.599780430991306,34.129661703756994,0.249,34.5,34.46910866375458
6330,34.0,22.599780430991306,34.139286015391406,0.249,34.5,34.469108664183295
6360,34.0,22.599780430991306,34.15298180798305,0.249,34.5,34.46910866460576
6390,34.1,22.599780430991306,34.17720021476606,0.249,34.5,34.469108665021054
6420,34.1,22.623732242626623,34.20541980872082,0.249,34.6,34.66900003027405
6450,34.1,22.633673746226822,34.22660014363004,0.249,34.6,34.66900007762354
6480,34.1,22.633673746226822,34.23941860138626,0.249,34.5,34.469108686709546
6510,34.2,22.633673746226822,34.253347459713325,0.249,34.6,34.66900010151585
6540,34.2,22.633673746226822,34.27690309869121,0.249,34.6,34.669000102412554
6570,34.2,22.65762555786215,34.305383946025415,0.249,34.6,34.66900010283268
6600,34.2,22.66756706146236,34.32735533952388,0.249,34.6,34.66900010324429
6630,34.2,22.66756706146236,34.33891890205285,0.249,34.7,34.66900010364884
6660,34.2,22.66756706146236,34.34442930366794,0.249,34.7,34.66900010404822
6690,34.2,22.73362634377659,34.35226991047142,0.249,34.7,34.669000104442034
6720,34.3,22.73362634377659,34.37284829722245,0.249,34.7,34.669000104829934
6750,34.3,22.75757815541191,34.408846384007404,0.249,34.7,34.66900010520931
6780,34.3,22.76751965901212,34.449940950986445,0.249,34.6,34.66900010557947
6810,34.3,22.743567847376788,34.48640042966707,0.249,34.5,34.46910867379046
6840,34.3,22.75757815541191,34.51496739333089,0.249,34.3,34.26921653183865
6870,34.3,22.76751965901212,34.533677920580146,0.249,34.2,34.16927014980956
6900,34.3,22.76751965901212,34.54313512996356,0.249,34.0,34.06932359742507
6930,34.3,22.76751965901212,34.547021354182846,0.249,33.8,33.869429916807235
6960,34.4,22.79147147064744,34.548701514589595,0.249,33.7,33.66953544680905
6990,34.4,22.80141297424764,34.54974352146843,0.249,33.5,33.46964016002568
7020,34.4,22.80141297424764,34.55005647714091,0.249,33.3,33.2697440302901
7050,34.4,22.80141297424764,34.54523048022878,0.249,33.1,33.06984704352334
7080,34.4,22.867472256561875,34.52068551111148,0.249,33.0,33.06984703431408
7110,34.4,22.843520444926547,34.457792364887666,0.249,32.8,32.86994916097365
7140,34.4,22.809627129691023,34.35353890771643,0.249,32.6,32.67005037908024
7170,34.4,22.75178200282017,34.22395464702464,0.249,32.4,32.37020046247562
7200,34.3,22.70794718398445,34.086235873051976,0.249,32.2,32.17029930970796
7230,34.2,22.6501020571136,33.944675401647885,0.249,32.0,32.07034833999626
7260,34.1,22.58231542664255,33.7923097275779,0.249,31.7,31.67054196694795
7290,34.0,22.538480607806825,33.62195139386375,0.249,31.7,31.67054198200691
7320,33.8,22.480635480935977,33.43821361027136,0.249,31.5,31.470637243546665
7350,33.7,22.41284885046492,33.25699934283335,0.249,31.4,31.37068444023498
7380,33.6,22.34506221999387,33.08818874171226,0.249,31.2,31.17077805345582
7410,33.4,22.301227401158148,32.92500397960447,0.249,31.1,31.07082442501832
7440,33.2,22.243382274287296,32.755395764462094,0.249,30.9,30.87091635079912
7470,33.0,22.175595643816244,32.57552361580298,0.249,30.7,30.67100711626688
7500,32.9,22.1078090133452,32.38623759826561,0.249,30.6,30.671007058376176
7530,32.7,22.106081665188384,32.18430765832028,0.249,30.4,30.37114091394176
7560,32.5,22.03829503471733,31.980025789941863,0.249,30.3,30.271184902700725
7590,32.3,21.946556592610957,31.80214743758501,0.249,30.1,30.071271965480264
7620,32.1,21.916732081810352,31.65366582648568,0.249,30.0,30.07127195215321
7650,31.9,21.868828458539703,31.51052766391723,0.249,29.8,29.87135771771716
7680,31.8,21.824993639703976,31.363487918926296,0.249,29.6,29.671442169589
7710,31.6,21.767148512833124,31.220832856184245,0.249,29.5,29.471525312716608
7740,31.5,21.7233136939974,31.08418092097105,0.249,29.4,29.37156630158848
7770,31.3,21.665468567126556,30.943978387632058,0.249,29.2,29.17164732866456
7800,31.1,21.597681936655498,30.79293041387217,0.249,29.1,29.071687297491337
7830,31.0,21.553847117819775,30.63042945510989,0.249,28.9,28.87176619978527
